time(s),zw(m)
 0.0,15.00841452036
 360.0,15.00976226668
 720.0,15.01031295427
 1080.0,15.01077857633
 1440.0,15.01124000037
 1800.0,15.01170813060
 2160.0,15.01217974081
 2520.0,15.01265563260
 2880.0,15.01313506789
 3240.0,15.01361882529
 3600.0,15.01410594586
 3960.0,15.01459622796
 4320.0,15.01508746748
 4680.0,15.01558207010
 5040.0,15.01607808428
 5400.0,15.01657362296
 5760.0,15.01706930713
 6120.0,15.01756364281
 6480.0,15.01805458900
 6840.0,15.01854162514
 7200.0,15.01902398163
 7560.0,15.01950219290
 7920.0,15.01997090591
 8280.0,15.02043400404
 8640.0,15.02088505581
 9000.0,15.02132897279
 9360.0,15.02176103064
 9720.0,15.02240641951
 10080.0,15.02421885940
 10440.0,15.02763938548
 10800.0,15.03223635720
 11160.0,15.03815743712
 11520.0,15.04580365472
 11880.0,15.05584772111
 12240.0,15.06932458247
 12600.0,15.08779909598
 12960.0,15.11326846184
 13320.0,15.14195992190
 13680.0,15.18787509746
 14040.0,15.26231255845
 14400.0,15.35829147929
 14760.0,15.46235429431
 15120.0,15.56435766158
 15480.0,15.65974159784
 15840.0,15.74746306878
 16200.0,15.82787669491
 16560.0,15.90167511795
 16920.0,15.96952211074
 17280.0,16.03198512931
 17640.0,16.08954550078
 18000.0,16.14261471864
 18360.0,16.19156376770
 18720.0,16.23671910043
 19080.0,16.27838237298
 19440.0,16.31682999766
 19800.0,16.35230901043
 20160.0,16.38505239665
 20520.0,16.41527475838
 20880.0,16.44317088912
 21240.0,16.46892466338
 21600.0,16.49270273357
 21960.0,16.51465825403
 22320.0,16.53493469287
 22680.0,16.55366559633
 23040.0,16.57097260317
 23400.0,16.58697706247
 23760.0,16.60181211898
 24120.0,16.61552983923
 24480.0,16.62821035636
 24840.0,16.63994438162
 25200.0,16.65080461725
 25560.0,16.66086091064
 25920.0,16.67017785061
 26280.0,16.67881229093
 26640.0,16.68681950060
 27000.0,16.69424954888
 27360.0,16.70115889283
 27720.0,16.68577690421
 28080.0,16.57108378531
 28440.0,16.37662102461
 28800.0,16.18408600149
 29160.0,16.00732802932
 29520.0,15.84824860211
 29880.0,15.70620000211
 30240.0,15.58052519259
 30600.0,15.47123373731
 30960.0,15.37920731813
 31320.0,15.30640238556
 31680.0,15.25577968694
 32040.0,15.21838063363
 32400.0,15.18428072825
 32760.0,15.15487626268
 33120.0,15.13082050809
 33480.0,15.11181786052
 33840.0,15.09711041879
 34200.0,15.08582967760
 34560.0,15.07716016127
 34920.0,15.07042881210
 35280.0,15.06512850227
 35640.0,15.06087986453
 36000.0,15.05741189663
 36360.0,15.05452990220
 36720.0,15.05210191743
 37080.0,15.05003183101
 37440.0,15.04824252922
 37800.0,15.04668289800
 38160.0,15.04531506114
 38520.0,15.04410172337
 38880.0,15.04302480537
 39240.0,15.04206148072
 39600.0,15.04119369136
 39960.0,15.04041309976
 40320.0,15.03970462267
 40680.0,15.03905852815
 41040.0,15.03847301226
 41400.0,15.03793350930
 41760.0,15.03744077480
 42120.0,15.03698590931
 42480.0,15.03656664218
 42840.0,15.03617857711
 43200.0,15.03581970380
 43560.0,15.03548580436
 43920.0,15.03517482059
 44280.0,15.03488224645
 44640.0,15.03461299122
 45000.0,15.03435893059
 45360.0,15.03411967490
 45720.0,15.03389775527
 46080.0,15.03368612574
 46440.0,15.03348701705
 46800.0,15.03330170226
 47160.0,15.03312383253
 47520.0,15.03295599972
 47880.0,15.03279856567
 48240.0,15.03264613268
 48600.0,15.03250282045
 48960.0,15.03236617503
 49320.0,15.03223344857
 49680.0,15.03210818440
 50040.0,15.03198978742
 50400.0,15.03187455404
 50760.0,15.03176147816
 51120.0,15.03165696238
 51480.0,15.03155499457
 51840.0,15.03145604545
 52200.0,15.03135947158
 52560.0,15.03126539510
 52920.0,15.03117635891
 53280.0,15.03108920667
 53640.0,15.03100463632
 54000.0,15.03092184167
 54360.0,15.03084411778
 54720.0,15.03076606878
 55080.0,15.03069096709
 55440.0,15.03061594500
 55800.0,15.03054264223
 56160.0,15.03047196330
 56520.0,15.03040299900
 56880.0,15.03033507966
 57240.0,15.03026903446
 57600.0,15.03020112522
 57960.0,15.03013647131
 58320.0,15.03007283599
 58680.0,15.03001049572
 59040.0,15.02994727133
 59400.0,15.02988566391
 59760.0,15.03007251071
 60120.0,15.03112071146
 60480.0,15.03305268553
 60840.0,15.03537827570
 61200.0,15.03793381777
 61560.0,15.04066087846
 61920.0,15.04354088546
 62280.0,15.04656800422
 62640.0,15.04974220223
 63000.0,15.05306829870
 63360.0,15.05654590217
 63720.0,15.06017814871
 64080.0,15.06396224804
 64440.0,15.06789075029
 64800.0,15.07195961172
 65160.0,15.07616158296
 65520.0,15.08048505856
 65880.0,15.08491406989
 66240.0,15.08943854482
 66600.0,15.09403167629
 66960.0,15.09868310837
 67320.0,15.10336531564
 67680.0,15.10805943250
 68040.0,15.11274217322
 68400.0,15.11738933037
 68760.0,15.12197870452
 69120.0,15.12648908424
 69480.0,15.13090039516
 69840.0,15.13171302167
 70200.0,15.12460438836
 70560.0,15.11204202867
 70920.0,15.09860696230
 71280.0,15.08653644649
 71640.0,15.07654991135
 72000.0,15.06860694961
 72360.0,15.06237361676
 72720.0,15.05746418338
 73080.0,15.05355505278
 73440.0,15.05039411709
 73800.0,15.04779031869
 74160.0,15.04560795509
 74520.0,15.04375670870
 74880.0,15.04216675912
 75240.0,15.04078274487
 75600.0,15.03957369168
 75960.0,15.03850467971
 76320.0,15.03755269288
 76680.0,15.03670319152
 77040.0,15.03594155551
 77400.0,15.03525360598
 77760.0,15.03462841161
 78120.0,15.03406102095
 78480.0,15.03354660078
 78840.0,15.03307325548
 79200.0,15.03263925573
 79560.0,15.03223888837
 79920.0,15.03186949550
 80280.0,15.03152851588
 80640.0,15.03121322750
 81000.0,15.03092043519
 81360.0,15.03064903833
 81720.0,15.03039402533
 82080.0,15.03015614356
 82440.0,15.02993470213
 82800.0,15.02972488045
 83160.0,15.02952845459
 83520.0,15.02934526276
 83880.0,15.02917158205
 84240.0,15.02900585122
 84600.0,15.02885128250
 84960.0,15.02870382820
 85320.0,15.02856614217
 85680.0,15.02843165787
 86040.0,15.02830578508
 86400.0,15.02818626017
 86760.0,15.02807142874
 87120.0,15.02796211844
 87480.0,15.02785640301
 87840.0,15.02775683301
 88200.0,15.02765994116
 88560.0,15.02756580372
 88920.0,15.02747653074
 89280.0,15.02739079156
 89640.0,15.02730780577
 90000.0,15.02756246405
 90360.0,15.02826762264
 90720.0,15.02910822021
 91080.0,15.02998282567
 91440.0,15.03084944866
 91800.0,15.03169733517
 92160.0,15.03251753406
 92520.0,15.03331218460
 92880.0,15.03408151667
 93240.0,15.03482470643
 93600.0,15.03554215679
 93960.0,15.03623325209
 94320.0,15.03689854399
 94680.0,15.03753874869
 95040.0,15.03815408835
 95400.0,15.03874411601
 95760.0,15.03930631881
 96120.0,15.03984491764
 96480.0,15.04035464523
 96840.0,15.04084226718
 97200.0,15.04130161943
 97560.0,15.04173845654
 97920.0,15.04214844641
 98280.0,15.04253758806
 98640.0,15.04290614428
 99000.0,15.04324990721
 99360.0,15.04357321578
 99720.0,15.04371359038
 100080.0,15.04306377406
 100440.0,15.04163338605
 100800.0,15.04004049586
 101160.0,15.03853481829
 101520.0,15.03718555188
 101880.0,15.03600579480
 102240.0,15.03497102534
 102600.0,15.03406206936
 102960.0,15.03325923038
 103320.0,15.03254269953
 103680.0,15.03190308473
 104040.0,15.03132468440
 104400.0,15.03079996937
 104760.0,15.03032517153
 105120.0,15.02988887392
 105480.0,15.02949191363
 105840.0,15.02912548254
 106200.0,15.02878667755
 106560.0,15.02847513401
 106920.0,15.02818775122
 107280.0,15.02791924914
 107640.0,15.02767153988
 108000.0,15.02743878669
 108360.0,15.02721994142
 108720.0,15.02701693894
 109080.0,15.02682566327
 109440.0,15.02664949604
 109800.0,15.02648062161
 110160.0,15.02632219211
 110520.0,15.02617100239
 110880.0,15.02603057083
 111240.0,15.02589578574
 111600.0,15.02581135199

